# Wavelength (A) 	 Flux
3.927860673711374147e+03 2.900703093469914794e+07
3.930417089833339105e+03 2.785001320625957847e+07
3.932973522176956067e+03 2.568159822544840351e+07
3.935529970682922794e+03 2.295596668407251686e+07
3.938086435292151236e+03 1.976934110348756611e+07
3.940642915945767982e+03 1.749255649279666692e+07
3.943199412585114715e+03 1.773223696667617932e+07
3.945755925151746851e+03 2.005526390204060450e+07
3.948312453587433993e+03 2.262621591106611863e+07
3.950868997834161291e+03 2.526558344180496410e+07
3.953425557834128085e+03 2.771733200434236601e+07
3.955982133529746989e+03 2.988466691815805808e+07
3.958538724863646621e+03 3.159762994548032805e+07
3.961095331778669333e+03 3.232349371567894891e+07
3.963651954217872571e+03 3.234355525383883342e+07
3.966208592124526604e+03 3.124799133767573908e+07
3.968765245442118612e+03 2.861239097807794064e+07
3.971321914114348147e+03 2.507417049462974817e+07
3.973878598085130307e+03 2.065926136947814003e+07
3.976435297298594378e+03 1.817315838109252602e+07
3.978992011699084287e+03 1.897649840464960784e+07
3.981548741231158601e+03 2.251441165072884783e+07
3.984105485839589164e+03 2.728266781507625431e+07
3.986662245469364279e+03 3.140599465818281844e+07
3.989219020065685072e+03 3.362646276706898957e+07
3.991775809573967308e+03 3.431394231669080257e+07
3.994332613939842304e+03 3.489777004872383922e+07
3.996889433109155107e+03 3.584426219468345493e+07
3.999446267027965405e+03 3.687356148778147995e+07
4.002003115642547073e+03 3.708138251225173473e+07
4.004559978899388170e+03 3.638643455296596885e+07
4.007116856745192763e+03 3.662573676890821010e+07
4.009673749126877283e+03 3.751049534666467458e+07
4.012230655991574622e+03 3.642504224738018215e+07
4.014787577286630494e+03 3.519467239852371812e+07
4.017344512959606163e+03 3.574928717392457277e+07
4.019901462958277079e+03 3.680205008225587010e+07
4.022458427230633333e+03 3.692253045468507707e+07
4.025015405724878747e+03 3.652289376502221078e+07
4.027572398389432237e+03 3.629503824704549462e+07
4.030129405172927363e+03 3.636749866804398596e+07
4.032686426024211414e+03 3.604841980716355145e+07
4.035243460892347230e+03 3.619884068833278120e+07
4.037800509726611381e+03 3.505592308703679591e+07
4.040357572476494624e+03 3.229770146933129057e+07
4.042914649091703268e+03 3.171026172571608424e+07
4.045471739522156895e+03 3.400710536870084703e+07
4.048028843717990640e+03 3.481736207558676600e+07
4.050585961629552912e+03 3.361176781716431677e+07
4.053143093207407674e+03 2.985339317587041110e+07
4.055700238402333071e+03 2.861018591839147732e+07
4.058257397165321436e+03 3.138313439712826535e+07
4.060814569447580197e+03 3.185827202462778613e+07
4.063371755200530060e+03 3.031829115553227067e+07
4.065928954375807280e+03 2.901627910480701551e+07
4.068486166925262296e+03 2.927159706711423770e+07
4.071043392800959737e+03 2.809570388818554208e+07
4.073600631955179779e+03 2.676626350262575224e+07
4.076157884340415421e+03 2.839313054806224629e+07
4.078715149909375214e+03 2.881179433020244539e+07
4.081272428614981891e+03 2.806412310924469680e+07
4.083829720410372829e+03 2.783374142724642158e+07
4.086387025248899590e+03 2.646863326921902969e+07
4.088944343084128832e+03 2.757432604350743443e+07
4.091501673869840488e+03 2.856080886581812426e+07
4.094059017560030497e+03 2.777526860032750666e+07
4.096616374108907621e+03 2.890588552522635460e+07
4.099173743470896625e+03 2.926815598254497349e+07
4.101731125600636005e+03 2.831122306034956127e+07
4.104288520452978446e+03 2.678855860535415635e+07
4.106845927982992180e+03 2.517745320756118000e+07
4.109403348145958262e+03 2.262321326059378311e+07
4.111960780897374207e+03 2.180492926940412819e+07
4.114518226192950351e+03 2.466192506739526242e+07
4.117075683988611672e+03 2.617677521652075648e+07
4.119633154240498698e+03 2.626359789030823484e+07
4.122190636904965686e+03 2.708139451602256671e+07
4.124748131938581537e+03 2.810189999093424529e+07
4.127305639298129790e+03 2.725949203030358255e+07
4.129863158940607718e+03 2.655192746306024864e+07
4.132420690823228142e+03 2.686062319674134627e+07
4.134978234903416705e+03 2.650961999154142663e+07
4.137535791138815512e+03 2.592381558565514162e+07
4.140093359487280395e+03 2.492533299786435068e+07
4.142650939906881831e+03 2.411104164293190464e+07
4.145208532355903117e+03 2.570951724276110902e+07
4.147766136792844009e+03 2.735000061862430349e+07
4.150323753176418904e+03 2.639754353993534669e+07
4.152881381465554114e+03 2.431658357520535961e+07
4.155439021619394225e+03 2.516263888541170582e+07
4.157996673597294830e+03 2.599690275452980027e+07
4.160554337358827979e+03 2.558827342642266303e+07
4.163112012863779455e+03 2.496505956706304848e+07
4.165669700072149681e+03 2.460846546075726673e+07
4.168227398944153720e+03 2.567738798321707547e+07
4.170785109440220367e+03 2.702088909965756908e+07
4.173342831520994878e+03 2.767315384160363674e+07
4.175900565147334419e+03 2.668084630965644121e+07
4.178458310280311707e+03 2.624537097485781461e+07
4.181016066881214101e+03 2.509344270231088623e+07
4.183573834911544509e+03 2.423582021154006198e+07
4.186131614333017751e+03 2.507461717306934670e+07
4.188689405107564198e+03 2.573064465690103546e+07
4.191247207197331591e+03 2.567243515465532243e+07
4.193805020564676852e+03 2.554856860271991789e+07
4.196362845172175184e+03 2.506346790924452618e+07
4.198920680982614613e+03 2.528207487852252275e+07
4.201478527958999621e+03 2.706133965669287369e+07
4.204036386064546605e+03 2.679894224025102705e+07
4.206594255262687511e+03 2.481588340296779573e+07
4.209152135517069837e+03 2.409978216126221046e+07
4.211710026791552991e+03 2.496059542430361733e+07
4.214267929050214661e+03 2.670009509549978375e+07
4.216825842257342629e+03 2.817587404422244057e+07
4.219383766377442043e+03 2.839635454643617198e+07
4.221941701375231787e+03 2.865212015807093307e+07
4.224499647215645382e+03 2.768938904013952240e+07
4.227057603863830082e+03 2.731659097565004602e+07
4.229615571285148690e+03 2.899859203355765343e+07
4.232173549445178651e+03 2.819642775542235002e+07
4.234731538309709322e+03 2.384048497947406024e+07
4.237289537844748338e+03 2.350048585880029574e+07
4.239847548016515248e+03 2.799002431357922032e+07
4.242405568791444239e+03 2.875976904529516026e+07
4.244963600136185050e+03 2.705724961480784789e+07
4.247521642017600243e+03 2.660699673486858606e+07
4.250079694402768837e+03 2.785542861010539904e+07
4.252637757258983584e+03 2.909192938970879838e+07
4.255195830553751875e+03 2.904496377350195497e+07
4.257753914254793017e+03 2.719482575745223090e+07
4.260312008330045501e+03 2.691539139417832345e+07
4.262870112747658823e+03 2.787837938232414424e+07
4.265428227475997119e+03 2.849427748457796499e+07
4.267986352483641895e+03 2.784506025335572660e+07
4.270544487739384749e+03 2.688361888261326775e+07
4.273102633212234650e+03 2.926021448798052222e+07
4.275660788871415207e+03 3.064343096915311739e+07
4.278218954686363759e+03 2.870226990064622834e+07
4.280777130626730468e+03 2.553900670697170496e+07
4.283335316662383775e+03 2.502118673482658342e+07
4.285893512763403123e+03 2.797672277069410309e+07
4.288451718900083506e+03 2.939173827474942431e+07
4.291009935042935467e+03 2.883938496220258996e+07
4.293568161162683282e+03 2.857101839007790759e+07
4.296126397230264047e+03 2.757027438888577372e+07
4.298684643216832228e+03 2.622600719913311675e+07
4.301242899093755113e+03 2.653775356422807276e+07
4.303801164832614631e+03 2.749498769081374630e+07
4.306359440405207351e+03 2.557249659019665048e+07
4.308917725783544483e+03 2.223435643330501392e+07
4.311476020939850969e+03 2.090110158212897554e+07
4.314034325846567299e+03 2.142974167673340812e+07
4.316592640476347697e+03 2.071500984950307012e+07
4.319150964802061026e+03 2.015347592435635626e+07
4.321709298796789881e+03 2.277446469803771004e+07
4.324267642433834226e+03 2.815269233951188624e+07
4.326825995686704118e+03 3.307045392153106630e+07
4.329384358529127894e+03 3.404039158505212516e+07
4.331942730935045802e+03 3.060994486955928802e+07
4.334501112878613640e+03 2.663330259660992026e+07
4.337059504334202757e+03 2.824438047338633239e+07
4.339617905276396414e+03 3.225101296414871141e+07
4.342176315679995241e+03 3.326377908386253193e+07
4.344734735520010872e+03 3.221981964873137325e+07
4.347293164771673219e+03 2.819672237108412758e+07
4.349851603410424104e+03 2.463796035433252156e+07
4.352410051411921813e+03 2.629884688974726200e+07
4.354968508752035632e+03 2.992818476741060987e+07
4.357526975406853126e+03 3.184717722346821427e+07
4.360085451352673772e+03 3.096344321759841591e+07
4.362643936566014418e+03 2.972886793669668585e+07
4.365202431023602003e+03 3.086742814153954759e+07
4.367760934702382656e+03 3.208016766241355985e+07
4.370319447579513508e+03 3.285525543409356475e+07
4.372877969632367240e+03 3.398544035417522490e+07
4.375436500838532083e+03 3.407212195566173643e+07
4.377995041175810002e+03 3.320240179064975679e+07
4.380553590622215779e+03 3.238482962249334902e+07
4.383112149155981569e+03 3.132560765977691859e+07
4.385670716755551439e+03 3.101946769623864442e+07
4.388229293399585913e+03 3.206328361623086408e+07
4.390787879066960159e+03 3.033310928106202558e+07
4.393346473736760345e+03 2.679656162096841633e+07
4.395905077388291829e+03 2.720546880132392421e+07
4.398463690001070972e+03 2.973651605820060894e+07
4.401022311554829685e+03 3.045703651804709435e+07
4.403580942029515427e+03 3.109943332065516710e+07
4.406139581405289391e+03 3.196786215684078261e+07
4.408698229662525591e+03 3.221478433959887177e+07
4.411256886781815410e+03 3.102690540230703354e+07
4.413815552743963053e+03 2.978639468225409463e+07
4.416374227529986456e+03 2.997016392299944907e+07
4.418932911121120924e+03 3.217742720102922991e+07
4.421491603498812765e+03 3.391759258218343556e+07
4.424050304644723838e+03 3.329497954108447209e+07
4.426609014540732460e+03 3.290412850320909917e+07
4.429167733168929772e+03 3.437237071611670405e+07
4.431726460511620644e+03 3.463155932682460546e+07
4.434285196551325498e+03 3.387347390562724322e+07
4.436843941270779396e+03 3.399222772617778927e+07
4.439402694652932041e+03 3.411485475354202837e+07
4.441961456680945957e+03 3.340333003347956389e+07
4.444520227338200129e+03 3.268305237672260031e+07
4.447079006608287273e+03 3.355361010425554216e+07
4.449637794475012925e+03 3.432382683407320082e+07
4.452196590922400901e+03 3.348712921852529794e+07
4.454755395934686021e+03 3.369662639213835448e+07
4.457314209496318654e+03 3.451776494267912954e+07
4.459873031591963809e+03 3.450510214647272229e+07
4.462431862206501137e+03 3.331827370458106324e+07
4.464990701325024929e+03 3.145406116122350842e+07
4.467549548932843209e+03 3.069501362339713797e+07
4.470108405015479548e+03 3.117658472069035843e+07
4.472667269558670341e+03 3.215617551643408462e+07
4.475226142548367534e+03 3.330918688128855452e+07
4.477785023970737711e+03 3.360106765678612143e+07
4.480343913812161190e+03 3.391559227520082891e+07
4.482902812059234748e+03 3.507963497079463303e+07
4.485461718698766163e+03 3.591008617703323811e+07
4.488020633717781493e+03 3.522724886656558514e+07
4.490579557103517800e+03 3.372101426453242451e+07
4.493138488843428604e+03 3.379884655923700333e+07
4.495697428925182066e+03 3.517222689904620498e+07
4.498256377336660080e+03 3.493979157302044332e+07
4.500815334065959178e+03 3.429396050145682693e+07
4.503374299101390534e+03 3.429599404092235118e+07
4.505933272431479054e+03 3.456924186881697178e+07
4.508492254044965193e+03 3.509641494994221628e+07
4.511051243930804048e+03 3.570929464916591346e+07
4.513610242078163537e+03 3.646796780452772975e+07
4.516169248476428038e+03 3.696344097403342277e+07
4.518728263115194750e+03 3.675091355241831392e+07
4.521287285984275513e+03 3.617463569142147899e+07
4.523846317073698629e+03 3.539987071731309593e+07
4.526405356373705217e+03 3.499582984517842531e+07
4.528964403874749223e+03 3.513360031332896650e+07
4.531523459567502869e+03 3.499391426263967901e+07
4.534082523442850288e+03 3.387130945423980057e+07
4.536641595491891167e+03 3.216147737566922233e+07
4.539200675705938011e+03 3.131015848608739302e+07
4.541759764076519787e+03 3.157936324209311977e+07
4.544318860595379192e+03 3.224629652434109151e+07
4.546877965254472656e+03 3.354834848243577033e+07
4.549437078045973067e+03 3.472842423615328968e+07
4.551996198962265225e+03 3.468284750368190557e+07
4.554555327995950393e+03 3.414237166562248021e+07
4.557114465139842650e+03 3.330555982636582106e+07
4.559673610386973451e+03 3.276647514556510746e+07
4.562232763730584338e+03 3.275614368361418694e+07
4.564791925164135137e+03 3.311844238182105869e+07
4.567351094681298491e+03 3.391972711690863967e+07
4.569910272275962598e+03 3.483585077832759172e+07
4.572469457942227564e+03 3.447181263751336187e+07
4.575028651674410867e+03 3.367164724446453154e+07
4.577587853467043715e+03 3.380980600785749406e+07
4.580147063314870138e+03 3.409515041564504057e+07
4.582706281212851536e+03 3.403638697726833820e+07
4.585265507156160311e+03 3.430007959943582118e+07
4.587824741140186234e+03 3.383627324555312097e+07
4.590383983160531898e+03 3.259057202732989192e+07
4.592943233213016356e+03 3.190606085020111501e+07
4.595502491293669664e+03 3.224849687516533583e+07
4.598061757398740156e+03 3.305187392211458832e+07
4.600621031524688078e+03 3.326649463287288696e+07
4.603180313668188319e+03 3.271567845943515375e+07
4.605739603826132225e+03 3.241210306668256223e+07
4.608298901995623964e+03 3.240114279810108989e+07
4.610858208173982348e+03 3.235680120118053630e+07
4.613417522358740825e+03 3.253901552471853793e+07
4.615976844547647488e+03 3.301959468849679828e+07
4.618536174738665068e+03 3.354253347042135149e+07
4.621095512929969118e+03 3.345689172912603617e+07
4.623654859119951652e+03 3.300914810040239617e+07
4.626214213307219325e+03 3.289556818904078752e+07
4.628773575490590702e+03 3.285303149958427623e+07
4.631332945669102628e+03 3.294176882267522439e+07
4.633892323842002952e+03 3.297958980263357237e+07
4.636451710008755072e+03 3.284248961969918013e+07
4.639011104169038845e+03 3.274626061019192636e+07
4.641570506322745132e+03 3.253082821604081988e+07
4.644129916469983073e+03 3.222617201884313673e+07
4.646689334611071899e+03 3.169354490322081745e+07
4.649248760746550033e+03 3.153974989510880411e+07
4.651808194877165988e+03 3.172388769450840354e+07
4.654367637003885648e+03 3.130761623189252242e+07
4.656927087127889536e+03 3.045253459487157315e+07
4.659486545250570089e+03 3.071234617075334862e+07
4.662046011373536203e+03 3.149314609339471906e+07
4.664605485498611415e+03 3.149746666986494511e+07
4.667164967627832993e+03 3.172290024276853725e+07
4.669724457763451937e+03 3.235807624101945385e+07
4.672283955907934796e+03 3.180153672052443773e+07
4.674843462063963671e+03 3.006087337125375867e+07
4.677402976234433481e+03 2.866248650195096433e+07
4.679962498422452882e+03 2.912491948159470409e+07
4.682522028631346984e+03 3.028957686061942950e+07
4.685081566864653723e+03 3.072958556095857918e+07
4.687641113126127493e+03 3.036899268129279092e+07
4.690200667419735510e+03 2.969789907953891158e+07
4.692760229749659629e+03 2.983721562353313714e+07
4.695319800120297259e+03 3.031053608936253935e+07
4.697879378536257718e+03 3.030964054967192933e+07
4.700438965002368604e+03 2.999631884194614366e+07
4.702998559523669428e+03 3.007371664991180971e+07
4.705558162105413430e+03 3.016855006555260718e+07
4.708117772753072131e+03 2.950187115613101050e+07
4.710677391472326235e+03 2.847212830811488256e+07
4.713237018269075634e+03 2.804527039511584491e+07
4.715796653149431222e+03 2.825983373811521381e+07
4.718356296119721264e+03 2.855368711875895783e+07
4.720915947186486846e+03 2.886967128079906851e+07
4.723475606356483695e+03 2.926170654504698887e+07
4.726035273636681268e+03 2.969359057229143754e+07
4.728594949034265483e+03 3.049504938915266842e+07
4.731154632556635988e+03 3.079734110555526987e+07
4.733714324211405255e+03 3.069604283847628906e+07
4.736274024006401305e+03 2.987444245565766096e+07
4.738833731949668618e+03 2.860403949862559885e+07
4.741393448049462677e+03 2.831912383995690569e+07
4.743953172314256335e+03 2.863261347209019214e+07
4.746512904752734357e+03 2.859669013447283581e+07
4.749072645373798878e+03 2.871942060762413964e+07
4.751632394186563943e+03 2.906075517308704555e+07
4.754192151200359149e+03 2.921782206601419672e+07
4.756751916424728734e+03 2.926732192162318528e+07
4.759311689869430666e+03 2.913251043912968412e+07
4.761871471544439373e+03 2.859801454295408726e+07
4.764431261459940288e+03 2.797259925840486586e+07
4.766991059626337119e+03 2.799004642418102548e+07
4.769550866054245489e+03 2.820065117079096660e+07
4.772110680754495661e+03 2.765509715818892792e+07
4.774670503738134357e+03 2.688571766145800054e+07
4.777230335016420213e+03 2.710875156970038638e+07
4.779790174600828323e+03 2.784760704770447686e+07
4.782350022503045693e+03 2.826757926813136414e+07
4.784909878734977610e+03 2.870169661112355068e+07
4.787469743308741272e+03 2.902348861076989025e+07
4.790029616236668517e+03 2.884143303002016991e+07
4.792589497531306733e+03 2.826384663254624233e+07
4.795149387205415223e+03 2.768277083578352630e+07
4.797709285271971567e+03 2.734256910625494272e+07
4.800269191744165255e+03 2.747430817152739316e+07
4.802829106635400422e+03 2.810385052962399647e+07
4.805389029959295840e+03 2.860593385350950062e+07
4.807948961729685834e+03 2.809681337951669097e+07
4.810508901960618459e+03 2.761654552532821894e+07
4.813068850666355502e+03 2.769245359677455202e+07
4.815628807861373389e+03 2.747679747640777379e+07
4.818188773560365007e+03 2.719397976628769562e+07
4.820748747778236066e+03 2.736898296764127538e+07
4.823308730530105095e+03 2.769289343795101345e+07
4.825868721831308903e+03 2.797983250096088275e+07
4.828428721697396213e+03 2.808035147968766093e+07
4.830988730144130386e+03 2.762705465700009465e+07
4.833548747187489425e+03 2.691793278631107882e+07
4.836108772843666884e+03 2.691449601433942467e+07
4.838668807129070046e+03 2.701931317085836083e+07
4.841228850060319928e+03 2.677741511153488979e+07
4.843788901654252186e+03 2.688394836940361932e+07
4.846348961927918936e+03 2.689250477180815116e+07
4.848909030898584206e+03 2.634732895680294931e+07
4.851469108583727575e+03 2.599561166082691401e+07
4.854029195001044172e+03 2.628560198736656457e+07
4.856589290168441039e+03 2.649316527306858078e+07
4.859149394104041676e+03 2.626503228149412200e+07
4.861709506826184224e+03 2.587742105569136888e+07
4.864269628353419648e+03 2.481259610106022283e+07
4.866829758704514461e+03 2.320540073930147290e+07
4.869389897898450727e+03 2.062984020342567936e+07
4.871950045954422421e+03 1.908052821119669825e+07
4.874510202891839981e+03 2.118346917823588103e+07
4.877070368730327573e+03 2.345024337300477549e+07
4.879630543489724005e+03 2.336580649577336013e+07
4.882190727190082725e+03 2.281865778819329292e+07
4.884750919851671824e+03 2.355644337943458930e+07
4.887311121494972213e+03 2.444915528851499036e+07
4.889871332140681261e+03 2.489956965504710749e+07
4.892431551809710982e+03 2.484307738595322147e+07
4.894991780523186208e+03 2.404352742434335500e+07
4.897552018302446413e+03 2.327204466810178757e+07
4.900112265169047532e+03 2.265472304688535258e+07
4.902672521144757411e+03 2.352742240497913957e+07
4.905232786251560356e+03 2.538470624493897334e+07
4.907793060511654403e+03 2.584122350304994360e+07
4.910353343947451322e+03 2.540582368350810930e+07
4.912913636581578430e+03 2.495128066712584719e+07
4.915473938436877688e+03 2.501620401039725915e+07
4.918034249536404786e+03 2.471375531750654429e+07
4.920594569903429147e+03 2.390876306912227720e+07
4.923154899561435741e+03 2.432420418961187080e+07
4.925715238534126001e+03 2.461333445965459570e+07
4.928275586845411453e+03 2.270054240454129875e+07
4.930835944519420082e+03 2.150218580053627118e+07
4.933396311580497240e+03 2.259958019503667206e+07
4.935956688053197468e+03 2.378234741725119203e+07
4.938517073962294489e+03 2.454255287047478184e+07
4.941077469332773035e+03 2.441563254430108517e+07
4.943637874189833383e+03 2.354461785207067430e+07
4.946198288558893182e+03 2.279554964555044845e+07
